#Spectra: 1
Emin______Emax      -1.404180679555782E+01  2.595819320444218E+01
EminPole__EmaxPole  -7.920297253811836E+01  9.612958459489820E+01
dE________Gamma      1.000500250125063E-02  1.000000000000000E-01
Energy               Re[0]                  Im[0]                
-1.404180679556E+01 -1.448807849836523E-03 -4.845453232636502E-05
-1.403180179306E+01 -1.510781484723453E-03 -4.881370634840243E-05
-1.402179679056E+01 -1.573230034403261E-03 -4.917547366376929E-05
-1.401179178805E+01 -1.635753348364096E-03 -4.953806525528793E-05
-1.400178678555E+01 -1.697968822997560E-03 -4.989978888715282E-05
-1.399178178305E+01 -1.759523921122011E-03 -5.025908462798907E-05
-1.398177678055E+01 -1.820104839752166E-03 -5.061456330502522E-05
-1.397177177805E+01 -1.879441281909275E-03 -5.096502768987184E-05
-1.396176677555E+01 -1.937307836329455E-03 -5.130947864875914E-05
-1.395176177305E+01 -1.993522766315438E-03 -5.164710981023922E-05
-1.394175677055E+01 -2.047945072228293E-03 -5.197729458452935E-05
-1.393175176804E+01 -2.100470592784807E-03 -5.229956892816863E-05
-1.392174676554E+01 -2.151027731626189E-03 -5.261361245481724E-05
-1.391174176304E+01 -2.199573204012641E-03 -5.291922964272583E-05
-1.390173676054E+01 -2.246088033731154E-03 -5.321633215817371E-05
-1.389173175804E+01 -2.290573908226303E-03 -5.350492277236641E-05
-1.388172675554E+01 -2.333049920532859E-03 -5.378508099675572E-05
-1.387172175304E+01 -2.373549681860072E-03 -5.405695036327688E-05
-1.386171675054E+01 -2.412118768483440E-03 -5.432072718645299E-05
-1.385171174803E+01 -2.448812461694781E-03 -5.457665062270584E-05
-1.384170674553E+01 -2.483693742853462E-03 -5.482499385700098E-05
-1.383170174303E+01 -2.516831512269490E-03 -5.506605627688254E-05
-1.382169674053E+01 -2.548299007834542E-03 -5.530015652608988E-05
-1.381169173803E+01 -2.578172405497500E-03 -5.552762635764372E-05
-1.380168673553E+01 -2.606529588265208E-03 -5.574880522689859E-05
-1.379168173303E+01 -2.633449073351299E-03 -5.596403557836412E-05
-1.378167673053E+01 -2.659009088629889E-03 -5.617365878712228E-05
-1.377167172802E+01 -2.683286790029485E-03 -5.637801171799313E-05
-1.376166672552E+01 -2.706357611283299E-03 -5.657742386477855E-05
-1.375166172302E+01 -2.728294736861610E-03 -5.677221502941969E-05
-1.374165672052E+01 -2.749168688202075E-03 -5.696269349784266E-05
-1.373165171802E+01 -2.769047012714244E-03 -5.714915466647221E-05
-1.372164671552E+01 -2.787994064581660E-03 -5.733188007141642E-05
-1.371164171302E+01 -2.806070866185873E-03 -5.751113677143706E-05
-1.370163671052E+01 -2.823335039048821E-03 -5.768717703610912E-05
-1.369163170801E+01 -2.839840793522339E-03 -5.786023829201964E-05
-1.368162670551E+01 -2.855638967011232E-03 -5.803054328226909E-05
-1.367162170301E+01 -2.870777101254988E-03 -5.819830039775872E-05
-1.366161670051E+01 -2.885299550059336E-03 -5.836370414253098E-05
-1.365161169801E+01 -2.899247609814609E-03 -5.852693569956067E-05
-1.364160669551E+01 -2.912659666115303E-03 -5.868816356765881E-05
-1.363160169301E+01 -2.925571350765491E-03 -5.884754424442368E-05
-1.362159669051E+01 -2.938015704386984E-03 -5.900522293421641E-05
-1.361159168800E+01 -2.950023340714779E-03 -5.916133426398008E-05
-1.360158668550E+01 -2.961622609456360E-03 -5.931600299316085E-05
-1.359158168300E+01 -2.972839755292723E-03 -5.946934470708515E-05
-1.358157668050E+01 -2.983699071210506E-03 -5.962146648581378E-05
-1.357157167800E+01 -2.994223044874890E-03 -5.977246754279201E-05
-1.356156667550E+01 -3.004432497187460E-03 -5.992243982950695E-05
-1.355156167300E+01 -3.014346712527950E-03 -6.007146860393161E-05
-1.354155667050E+01 -3.023983560461418E-03 -6.021963296177436E-05
-1.353155166799E+01 -3.033359608914437E-03 -6.036700633052333E-05
-1.352154666549E+01 -3.042490228989105E-03 -6.051365692700914E-05
-1.351154166299E+01 -3.051389691706642E-03 -6.065964817974683E-05
-1.350153666049E+01 -3.060071257056701E-03 -6.080503911768966E-05
-1.349153165799E+01 -3.068547255781881E-03 -6.094988472726298E-05
-1.348152665549E+01 -3.076829164359336E-03 -6.109423627969233E-05
-1.347152165299E+01 -3.084927673652260E-03 -6.123814163068858E-05
-1.346151665049E+01 -3.092852751703421E-03 -6.138164549454489E-05
-1.345151164798E+01 -3.100613701131077E-03 -6.152478969466388E-05
-1.344150664548E+01 -3.108219211569314E-03 -6.166761339243405E-05
-1.343150164298E+01 -3.115677407571039E-03 -6.181015329629595E-05
-1.342149664048E+01 -3.122995892367180E-03 -6.195244385270278E-05
-1.341149163798E+01 -3.130181787846699E-03 -6.209451742058056E-05
-1.340148663548E+01 -3.137241771095638E-03 -6.223640443075423E-05
-1.339148163298E+01 -3.144182107805967E-03 -6.237813353171217E-05
-1.338147663048E+01 -3.151008682838428E-03 -6.251973172293391E-05
-1.337147162797E+01 -3.157727028199348E-03 -6.266122447693314E-05
-1.336146662547E+01 -3.164342348667423E-03 -6.280263585103433E-05
-1.335146162297E+01 -3.170859545285668E-03 -6.294398858983197E-05
-1.334145662047E+01 -3.177283236912712E-03 -6.308530421917756E-05
-1.333145161797E+01 -3.183617780010407E-03 -6.322660313246673E-05
-1.332144661547E+01 -3.189867286826914E-03 -6.336790466992570E-05
-1.331144161297E+01 -3.196035642120015E-03 -6.350922719152235E-05
-1.330143661047E+01 -3.202126518551281E-03 -6.365058814408408E-05
-1.329143160796E+01 -3.208143390869059E-03 -6.379200412312274E-05
-1.328142660546E+01 -3.214089548987218E-03 -6.393349092985035E-05
-1.327142160296E+01 -3.219968110056520E-03 -6.407506362379276E-05
-1.326141660046E+01 -3.225782029615305E-03 -6.421673657139468E-05
-1.325141159796E+01 -3.231534111900019E-03 -6.435852349095367E-05
-1.324140659546E+01 -3.237227019385786E-03 -6.450043749420282E-05
-1.323140159296E+01 -3.242863281623206E-03 -6.464249112482017E-05
-1.322139659046E+01 -3.248445303429660E-03 -6.478469639412637E-05
-1.321139158795E+01 -3.253975372489049E-03 -6.492706481420404E-05
-1.320138658545E+01 -3.259455666408285E-03 -6.506960742864682E-05
-1.319138158295E+01 -3.264888259274863E-03 -6.521233484113873E-05
-1.318137658045E+01 -3.270275127755781E-03 -6.535525724203060E-05
-1.317137157795E+01 -3.275618156774049E-03 -6.549838443307939E-05
-1.316136657545E+01 -3.280919144796897E-03 -6.564172585049377E-05
-1.315136157295E+01 -3.286179808765010E-03 -6.578529058641797E-05
-1.314135657045E+01 -3.291401788691663E-03 -6.592908740897708E-05
-1.313135156794E+01 -3.296586651956222E-03 -6.607312478099186E-05
-1.312134656544E+01 -3.301735897315839E-03 -6.621741087746910E-05
-1.311134156294E+01 -3.306850958656210E-03 -6.636195360195192E-05
-1.310133656044E+01 -3.311933208500816E-03 -6.650676060182152E-05
-1.309133155794E+01 -3.316983961296684E-03 -6.665183928262863E-05
-1.308132655544E+01 -3.322004476492885E-03 -6.679719682151634E-05
-1.307132155294E+01 -3.326995961426617E-03 -6.694284017981493E-05
-1.306131655044E+01 -3.331959574030994E-03 -6.708877611485516E-05
-1.305131154793E+01 -3.336896425376819E-03 -6.723501119106228E-05
-1.304130654543E+01 -3.341807582060349E-03 -6.738155179037762E-05
-1.303130154293E+01 -3.346694068447522E-03 -6.752840412206126E-05
-1.302129654043E+01 -3.351556868784875E-03 -6.767557423191204E-05
-1.301129153793E+01 -3.356396929185758E-03 -6.782306801094375E-05
-1.300128653543E+01 -3.361215159500830E-03 -6.797089120356449E-05
-1.299128153293E+01 -3.366012435080389E-03 -6.811904941528095E-05
-1.298127653043E+01 -3.370789598435530E-03 -6.826754811996698E-05
-1.297127152792E+01 -3.375547460805148E-03 -6.841639266671887E-05
-1.296126652542E+01 -3.380286803634776E-03 -6.856558828633606E-05
-1.295126152292E+01 -3.385008379972870E-03 -6.871514009743372E-05
-1.294125652042E+01 -3.389712915790130E-03 -6.886505311222912E-05
-1.293125151792E+01 -3.394401111226316E-03 -6.901533224201022E-05
-1.292124651542E+01 -3.399073641769637E-03 -6.916598230231209E-05
-1.291124151292E+01 -3.403731159372554E-03 -6.931700801781754E-05
-1.290123651042E+01 -3.408374293507998E-03 -6.946841402700305E-05
-1.289123150791E+01 -3.413003652170003E-03 -6.962020488653747E-05
-1.288122650541E+01 -3.417619822821532E-03 -6.977238507545706E-05
-1.287122150291E+01 -3.422223373293278E-03 -6.992495899912751E-05
-1.286121650041E+01 -3.426814852636022E-03 -7.007793099300350E-05
-1.285121149791E+01 -3.431394791929508E-03 -7.023130532620010E-05
-1.284120649541E+01 -3.435963705050196E-03 -7.038508620488929E-05
-1.283120149291E+01 -3.440522089400511E-03 -7.053927777552443E-05
-1.282119649041E+01 -3.445070426601702E-03 -7.069388412791476E-05
-1.281119148790E+01 -3.449609183152423E-03 -7.084890929814429E-05
-1.280118648540E+01 -3.454138811054969E-03 -7.100435727135792E-05
-1.279118148290E+01 -3.458659748411108E-03 -7.116023198441019E-05
-1.278117648040E+01 -3.463172419989121E-03 -7.131653732839413E-05
-1.277117147790E+01 -3.467677237763558E-03 -7.147327715105118E-05
-1.276116647540E+01 -3.472174601429598E-03 -7.163045525906941E-05
-1.275116147290E+01 -3.476664898892838E-03 -7.178807542028163E-05
-1.274115647040E+01 -3.481148506736407E-03 -7.194614136575869E-05
-1.273115146789E+01 -3.485625790666307E-03 -7.210465679181310E-05
-1.272114646539E+01 -3.490097105936181E-03 -7.226362536191596E-05
-1.271114146289E+01 -3.494562797752688E-03 -7.242305070852560E-05
-1.270113646039E+01 -3.499023201662536E-03 -7.258293643484066E-05
-1.269113145789E+01 -3.503478643921960E-03 -7.274328611647759E-05
-1.268112645539E+01 -3.507929441849851E-03 -7.290410330307729E-05
-1.267112145289E+01 -3.512375904164962E-03 -7.306539151984350E-05
-1.266111645039E+01 -3.516818331308499E-03 -7.322715426902073E-05
-1.265111144788E+01 -3.521257015752466E-03 -7.338939503130682E-05
-1.264110644538E+01 -3.525692242294635E-03 -7.355211726721049E-05
-1.263110144288E+01 -3.530124288340869E-03 -7.371532441835978E-05
-1.262109644038E+01 -3.534553424175202E-03 -7.387901990874821E-05
-1.261109143788E+01 -3.538979913218671E-03 -7.404320714594049E-05
-1.260108643538E+01 -3.543404012277029E-03 -7.420788952223059E-05
-1.259108143288E+01 -3.547825971778136E-03 -7.437307041575253E-05
-1.258107643038E+01 -3.552246035999509E-03 -7.453875319154803E-05
-1.257107142787E+01 -3.556664443286421E-03 -7.470494120260381E-05
-1.256106642537E+01 -3.561081426261137E-03 -7.487163779083796E-05
-1.255106142287E+01 -3.565497212023448E-03 -7.503884628805950E-05
-1.254105642037E+01 -3.569912022343301E-03 -7.520657001688897E-05
-1.253105141787E+01 -3.574326073845500E-03 -7.537481229164730E-05
-1.252104641537E+01 -3.578739578187180E-03 -7.554357641921820E-05
-1.251104141287E+01 -3.583152742228211E-03 -7.571286569987182E-05
-1.250103641037E+01 -3.587565768194653E-03 -7.588268342806681E-05
-1.249103140786E+01 -3.591978853836324E-03 -7.605303289322594E-05
-1.248102640536E+01 -3.596392192577698E-03 -7.622391738048149E-05
-1.247102140286E+01 -3.600805973663290E-03 -7.639534017140056E-05
-1.246101640036E+01 -3.605220382297502E-03 -7.656730454468351E-05
-1.245101139786E+01 -3.609635599778780E-03 -7.673981377684455E-05
-1.244100639536E+01 -3.614051803629259E-03 -7.691287114286672E-05
-1.243100139286E+01 -3.618469167718929E-03 -7.708647991684009E-05
-1.242099639036E+01 -3.622887862385649E-03 -7.726064337257845E-05
-1.241099138785E+01 -3.627308054550395E-03 -7.743536478421971E-05
-1.240098638535E+01 -3.631729907828451E-03 -7.761064742680634E-05
-1.239098138285E+01 -3.636153582636353E-03 -7.778649457685114E-05
-1.238097638035E+01 -3.640579236295126E-03 -7.796290951288658E-05
-1.237097137785E+01 -3.645007023129625E-03 -7.813989551599912E-05
-1.236096637535E+01 -3.649437094564348E-03 -7.831745587034785E-05
-1.235096137285E+01 -3.653869599215953E-03 -7.849559386367010E-05
-1.234095637035E+01 -3.658304682982277E-03 -7.867431278777393E-05
-1.233095136784E+01 -3.662742489128368E-03 -7.885361593901777E-05
-1.232094636534E+01 -3.667183158369518E-03 -7.903350661877845E-05
-1.231094136284E+01 -3.671626828951223E-03 -7.921398813390704E-05
-1.230093636034E+01 -3.676073636726586E-03 -7.939506379717355E-05
-1.229093135784E+01 -3.680523715230925E-03 -7.957673692770149E-05
-1.228092635534E+01 -3.684977195753981E-03 -7.975901085139504E-05
-1.227092135284E+01 -3.689434207409339E-03 -7.994188890134786E-05
-1.226091635034E+01 -3.693894877202021E-03 -8.012537441825559E-05
-1.225091134783E+01 -3.698359330093310E-03 -8.030947075081076E-05
-1.224090634533E+01 -3.702827689063743E-03 -8.049418125608842E-05
-1.223090134283E+01 -3.707300075173860E-03 -8.067950929993087E-05
-1.222089634033E+01 -3.711776607622973E-03 -8.086545825731924E-05
-1.221089133783E+01 -3.716257403806090E-03 -8.105203151273979E-05
-1.220088633533E+01 -3.720742579368942E-03 -8.123923246054212E-05
-1.219088133283E+01 -3.725232248261157E-03 -8.142706450529156E-05
-1.218087633033E+01 -3.729726522787850E-03 -8.161553106211727E-05
-1.217087132782E+01 -3.734225513659507E-03 -8.180463555704936E-05
-1.216086632532E+01 -3.738729330040258E-03 -8.199438142735537E-05
-1.215086132282E+01 -3.743238079594688E-03 -8.218477212186833E-05
-1.214085632032E+01 -3.747751868533187E-03 -8.237581110130988E-05
-1.213085131782E+01 -3.752270801655777E-03 -8.256750183861069E-05
-1.212084631532E+01 -3.756794982394721E-03 -8.275984781922179E-05
-1.211084131282E+01 -3.761324512855813E-03 -8.295285254142590E-05
-1.210083631032E+01 -3.765859493858214E-03 -8.314651951664443E-05
-1.209083130781E+01 -3.770400024973367E-03 -8.334085226973227E-05
-1.208082630531E+01 -3.774946204562560E-03 -8.353585433928234E-05
-1.207082130281E+01 -3.779498129813338E-03 -8.373152927791552E-05
-1.206081630031E+01 -3.784055896774976E-03 -8.392788065256992E-05
-1.205081129781E+01 -3.788619600392764E-03 -8.412491204479021E-05
-1.204080629531E+01 -3.793189334541370E-03 -8.432262705100853E-05
-1.203080129281E+01 -3.797765192057148E-03 -8.452102928282767E-05
-1.202079629031E+01 -3.802347264769657E-03 -8.472012236729749E-05
-1.201079128780E+01 -3.806935643532093E-03 -8.491990994719107E-05
-1.200078628530E+01 -3.811530418250891E-03 -8.512039568127605E-05
-1.199078128280E+01 -3.816131677914637E-03 -8.532158324458574E-05
-1.198077628030E+01 -3.820739510621975E-03 -8.552347632868778E-05
-1.197077127780E+01 -3.825354003608827E-03 -8.572607864194940E-05
-1.196076627530E+01 -3.829975243274755E-03 -8.592939390980111E-05
-1.195076127280E+01 -3.834603315208846E-03 -8.613342587500069E-05
-1.194075627030E+01 -3.839238304214468E-03 -8.633817829789235E-05
-1.193075126779E+01 -3.843880294333782E-03 -8.654365495666498E-05
-1.192074626529E+01 -3.848529368871325E-03 -8.674985964761246E-05
-1.191074126279E+01 -3.853185610416978E-03 -8.695679618538516E-05
-1.190073626029E+01 -3.857849100868436E-03 -8.716446840325099E-05
-1.189073125779E+01 -3.862519921452934E-03 -8.737288015334187E-05
-1.188072625529E+01 -3.867198152748624E-03 -8.758203530691259E-05
-1.187072125279E+01 -3.871883874705015E-03 -8.779193775458888E-05
-1.186071625029E+01 -3.876577166663355E-03 -8.800259140661933E-05
-1.185071124778E+01 -3.881278107376072E-03 -8.821400019312533E-05
-1.184070624528E+01 -3.885986775025859E-03 -8.842616806434992E-05
-1.183070124278E+01 -3.890703247244471E-03 -8.863909899090663E-05
-1.182069624028E+01 -3.895427601130761E-03 -8.885279696402853E-05
-1.181069123778E+01 -3.900159913268364E-03 -8.906726599581375E-05
-1.180068623528E+01 -3.904900259742966E-03 -8.928251011947580E-05
-1.179068123278E+01 -3.909648716159144E-03 -8.949853338958809E-05
-1.178067623028E+01 -3.914405357656830E-03 -8.971533988233166E-05
-1.177067122777E+01 -3.919170258927207E-03 -8.993293369574299E-05
-1.176066622527E+01 -3.923943494228463E-03 -9.015131894995800E-05
-1.175066122277E+01 -3.928725137401013E-03 -9.037049978746080E-05
-1.174065622027E+01 -3.933515261882310E-03 -9.059048037333016E-05
-1.173065121777E+01 -3.938313940721457E-03 -9.081126489548652E-05
-1.172064621527E+01 -3.943121246593461E-03 -9.103285756493622E-05
-1.171064121277E+01 -3.947937251812929E-03 -9.125526261602329E-05
-1.170063621027E+01 -3.952762028347895E-03 -9.147848430667370E-05
-1.169063120776E+01 -3.957595647832793E-03 -9.170252691864359E-05
-1.168062620526E+01 -3.962438181581533E-03 -9.192739475776976E-05
-1.167062120276E+01 -3.967289700600279E-03 -9.215309215421656E-05
-1.166061620026E+01 -3.972150275599464E-03 -9.237962346272615E-05
-1.165061119776E+01 -3.977019977006318E-03 -9.260699306286831E-05
-1.164060619526E+01 -3.981898874976429E-03 -9.283520535929126E-05
-1.163060119276E+01 -3.986787039405391E-03 -9.306426478197230E-05
-1.162059619026E+01 -3.991684539940236E-03 -9.329417578647243E-05
-1.161059118775E+01 -3.996591445990360E-03 -9.352494285418711E-05
-1.160058618525E+01 -4.001507826738588E-03 -9.375657049259967E-05
-1.159058118275E+01 -4.006433751151715E-03 -9.398906323553875E-05
-1.158057618025E+01 -4.011369287990790E-03 -9.422242564343163E-05
-1.157057117775E+01 -4.016314505821626E-03 -9.445666230356189E-05
-1.156056617525E+01 -4.021269473024495E-03 -9.469177783032778E-05
-1.155056117275E+01 -4.026234257804234E-03 -9.492777686550104E-05
-1.154055617025E+01 -4.031208928199556E-03 -9.516466407848606E-05
-1.153055116774E+01 -4.036193552092737E-03 -9.540244416658157E-05
-1.152054616524E+01 -4.041188197218635E-03 -9.564112185524564E-05
-1.151054116274E+01 -4.046192931173920E-03 -9.588070189835413E-05
-1.150053616024E+01 -4.051207821425957E-03 -9.612118907847249E-05
-1.149053115774E+01 -4.056232935321428E-03 -9.636258820711698E-05
-1.148052615524E+01 -4.061268340094995E-03 -9.660490412502532E-05
-1.147052115274E+01 -4.066314102877691E-03 -9.684814170242644E-05
-1.146051615024E+01 -4.071370290705218E-03 -9.709230583931122E-05
-1.145051114773E+01 -4.076436970526004E-03 -9.733740146570150E-05
-1.144050614523E+01 -4.081514209209170E-03 -9.758343354193205E-05
-1.143050114273E+01 -4.086602073552543E-03 -9.783040705891619E-05
-1.142049614023E+01 -4.091700630290042E-03 -9.807832703843388E-05
-1.141049113773E+01 -4.096809946099601E-03 -9.832719853340281E-05
-1.140048613523E+01 -4.101930087610351E-03 -9.857702662816255E-05
-1.139048113273E+01 -4.107061121410123E-03 -9.882781643875813E-05
-1.138047613023E+01 -4.112203114052576E-03 -9.907957311322219E-05
-1.137047112772E+01 -4.117356132064293E-03 -9.933230183186453E-05
-1.136046612522E+01 -4.122520241951793E-03 -9.958600780755658E-05
-1.135046112272E+01 -4.127695510208396E-03 -9.984069628602526E-05
-1.134045612022E+01 -4.132882003321034E-03 -1.000963725461454E-04
-1.133045111772E+01 -4.138079787776903E-03 -1.003530419002302E-04
-1.132044611522E+01 -4.143288930069917E-03 -1.006107096943310E-04
-1.131044111272E+01 -4.148509496707485E-03 -1.008693813085380E-04
-1.130043611022E+01 -4.153741554216564E-03 -1.011290621572749E-04
-1.129043110771E+01 -4.158985169150176E-03 -1.013897576896062E-04
-1.128042610521E+01 -4.164240408093602E-03 -1.016514733895417E-04
-1.127042110271E+01 -4.169507337670391E-03 -1.019142147763449E-04
-1.126041610021E+01 -4.174786024548533E-03 -1.021779874048390E-04
-1.125041109771E+01 -4.180076535446334E-03 -1.024427968657258E-04
-1.124040609521E+01 -4.185378937138451E-03 -1.027086487858919E-04
-1.123040109271E+01 -4.190693296461542E-03 -1.029755488287322E-04
-1.122039609021E+01 -4.196019680320183E-03 -1.032435026944686E-04
-1.121039108770E+01 -4.201358155692374E-03 -1.035125161204678E-04
-1.120038608520E+01 -4.206708789635314E-03 -1.037825948815709E-04
-1.119038108270E+01 -4.212071649290884E-03 -1.040537447904172E-04
-1.118037608020E+01 -4.217446801891070E-03 -1.043259716977773E-04
-1.117037107770E+01 -4.222834314763586E-03 -1.045992814928813E-04
-1.116036607520E+01 -4.228234255336994E-03 -1.048736801037563E-04
-1.115036107270E+01 -4.233646691146213E-03 -1.051491734975675E-04
-1.114035607020E+01 -4.239071689837613E-03 -1.054257676809525E-04
-1.113035106769E+01 -4.244509319174508E-03 -1.057034687003698E-04
-1.112034606519E+01 -4.249959647041962E-03 -1.059822826424439E-04
-1.111034106269E+01 -4.255422741452052E-03 -1.062622156343149E-04
-1.110033606019E+01 -4.260898670549092E-03 -1.065432738439906E-04
-1.109033105769E+01 -4.266387502614231E-03 -1.068254634807021E-04
-1.108032605519E+01 -4.271889306070992E-03 -1.071087907952618E-04
-1.107032105269E+01 -4.277404149489713E-03 -1.073932620804272E-04
