#Spectra: 1
Emin______Emax      -1.444793366376393E+01  2.555206633623607E+01
EminPole__EmaxPole  -1.120154587285045E+01  2.244188020339792E+01
dE________Gamma      1.000500250125063E-02  1.000000000000000E-01
Energy               Re[0]                  Im[0]                
-1.444793366376E+01 -1.525684988117387E-03 -5.080365261150627E-05
-1.443792866126E+01 -1.590947512257174E-03 -5.117964762876750E-05
-1.442792365876E+01 -1.656709944962231E-03 -5.155835515440711E-05
-1.441791865626E+01 -1.722550856210886E-03 -5.193792038242738E-05
-1.440791365376E+01 -1.788067296793992E-03 -5.231656902072830E-05
-1.439790865126E+01 -1.852887983463715E-03 -5.269266550414928E-05
-1.438790364876E+01 -1.916682427529918E-03 -5.306475331151286E-05
-1.437789864626E+01 -1.979165960351395E-03 -5.343157717754351E-05
-1.436789364375E+01 -2.040101186369656E-03 -5.379208954070013E-05
-1.435788864125E+01 -2.099296707530815E-03 -5.414544495208301E-05
-1.434788363875E+01 -2.156604029554633E-03 -5.449098646533310E-05
-1.433787863625E+01 -2.211913455897684E-03 -5.482822756561677E-05
-1.432787363375E+01 -2.265149587056765E-03 -5.515683236452525E-05
-1.431786863125E+01 -2.316266841061231E-03 -5.547659589623688E-05
-1.430786362875E+01 -2.365245237475661E-03 -5.578742558363246E-05
-1.429785862625E+01 -2.412086558666238E-03 -5.608932437500992E-05
-1.428785362374E+01 -2.456810918431343E-03 -5.638237568243625E-05
-1.427784862124E+01 -2.499453720989334E-03 -5.666673004469196E-05
-1.426784361874E+01 -2.540062972047973E-03 -5.694259334388477E-05
-1.425783861624E+01 -2.578696898516156E-03 -5.721021638214228E-05
-1.424783361374E+01 -2.615421836883166E-03 -5.746988564030780E-05
-1.423782861124E+01 -2.650310357335363E-03 -5.772191507192044E-05
-1.422782360874E+01 -2.683439598246779E-03 -5.796663881947256E-05
-1.421781860624E+01 -2.714889792188890E-03 -5.820440476894711E-05
-1.420781360373E+01 -2.744742969432964E-03 -5.843556888026979E-05
-1.419780860123E+01 -2.773081828015396E-03 -5.866049024522522E-05
-1.418780359873E+01 -2.799988761053815E-03 -5.887952683178288E-05
-1.417779859623E+01 -2.825545032503358E-03 -5.909303187618512E-05
-1.416779359373E+01 -2.849830092313022E-03 -5.930135088330132E-05
-1.415778859123E+01 -2.872921021319372E-03 -5.950481919313646E-05
-1.414778358873E+01 -2.894892095467493E-03 -5.970376006815352E-05
-1.413777858623E+01 -2.915814458275134E-03 -5.989848325317032E-05
-1.412777358372E+01 -2.935755889979302E-03 -6.008928395748524E-05
-1.411776858122E+01 -2.954780661594894E-03 -6.027644220797575E-05
-1.410776357872E+01 -2.972949462190552E-03 -6.046022252221252E-05
-1.409775857622E+01 -2.990319388037677E-03 -6.064087385214244E-05
-1.408775357372E+01 -3.006943982875095E-03 -6.081862975143385E-05
-1.407774857122E+01 -3.022873319310447E-03 -6.099370872294990E-05
-1.406774356872E+01 -3.038154112291246E-03 -6.116631470678029E-05
-1.405773856622E+01 -3.052829856574904E-03 -6.133663767359500E-05
-1.404773356371E+01 -3.066940981156168E-03 -6.150485429256890E-05
-1.403772856121E+01 -3.080525014632893E-03 -6.167112864757355E-05
-1.402772355871E+01 -3.093616756471791E-03 -6.183561297961316E-05
-1.401771855621E+01 -3.106248450051431E-03 -6.199844843747729E-05
-1.400771355371E+01 -3.118449954191868E-03 -6.215976582220001E-05
-1.399770855121E+01 -3.130248910620459E-03 -6.231968631417252E-05
-1.398770354871E+01 -3.141670905466797E-03 -6.247832217453608E-05
-1.397769854621E+01 -3.152739623427839E-03 -6.263577741489593E-05
-1.396769354370E+01 -3.163476993701891E-03 -6.279214843139346E-05
-1.395768854120E+01 -3.173903327163391E-03 -6.294752460079745E-05
-1.394768353870E+01 -3.184037444549352E-03 -6.310198883759296E-05
-1.393767853620E+01 -3.193896795659883E-03 -6.325561811205631E-05
-1.392767353370E+01 -3.203497569752091E-03 -6.340848393007173E-05
-1.391766853120E+01 -3.212854797433550E-03 -6.356065277601496E-05
-1.390766352870E+01 -3.221982444451799E-03 -6.371218652041293E-05
-1.389765852620E+01 -3.230893497832827E-03 -6.386314279434377E-05
-1.388765352369E+01 -3.239600044853895E-03 -6.401357533268625E-05
-1.387764852119E+01 -3.248113345349672E-03 -6.416353428837658E-05
-1.386764351869E+01 -3.256443897848653E-03 -6.431306651984145E-05
-1.385763851619E+01 -3.264601500024259E-03 -6.446221585370510E-05
-1.384763351369E+01 -3.272595303926840E-03 -6.461102332480123E-05
-1.383762851119E+01 -3.280433866436957E-03 -6.475952739540562E-05
-1.382762350869E+01 -3.288125195353831E-03 -6.490776415548503E-05
-1.381761850619E+01 -3.295676791503867E-03 -6.505576750564173E-05
-1.380761350368E+01 -3.303095687224858E-03 -6.520356932429577E-05
-1.379760850118E+01 -3.310388481553355E-03 -6.535119962053816E-05
-1.378760349868E+01 -3.317561372414682E-03 -6.549868667394377E-05
-1.377759849618E+01 -3.324620186088888E-03 -6.564605716254826E-05
-1.376759349368E+01 -3.331570404202202E-03 -6.579333628006303E-05
-1.375758849118E+01 -3.338417188469318E-03 -6.594054784331986E-05
-1.374758348868E+01 -3.345165403392322E-03 -6.608771439082505E-05
-1.373757848618E+01 -3.351819637101535E-03 -6.623485727324713E-05
-1.372757348367E+01 -3.358384220506770E-03 -6.638199673655404E-05
-1.371756848117E+01 -3.364863244911053E-03 -6.652915199848044E-05
-1.370756347867E+01 -3.371260578224232E-03 -6.667634131889670E-05
-1.369755847617E+01 -3.377579879901187E-03 -6.682358206465267E-05
-1.368755347367E+01 -3.383824614716935E-03 -6.697089076935855E-05
-1.367754847117E+01 -3.389998065480506E-03 -6.711828318855968E-05
-1.366754346867E+01 -3.396103344779630E-03 -6.726577435070674E-05
-1.365753846617E+01 -3.402143405839914E-03 -6.741337860427162E-05
-1.364753346366E+01 -3.408121052573617E-03 -6.756110966135632E-05
-1.363752846116E+01 -3.414038948886779E-03 -6.770898063806849E-05
-1.362752345866E+01 -3.419899627306837E-03 -6.785700409196232E-05
-1.361751845616E+01 -3.425705496986823E-03 -6.800519205676232E-05
-1.360751345366E+01 -3.431458851137785E-03 -6.815355607460955E-05
-1.359750845116E+01 -3.437161873935322E-03 -6.830210722603085E-05
-1.358750344866E+01 -3.442816646943312E-03 -6.845085615780382E-05
-1.357749844616E+01 -3.448425155092868E-03 -6.859981310890185E-05
-1.356749344365E+01 -3.453989292251736E-03 -6.874898793465910E-05
-1.355748844115E+01 -3.459510866416387E-03 -6.889839012929617E-05
-1.354748343865E+01 -3.464991604555758E-03 -6.904802884694127E-05
-1.353747843615E+01 -3.470433157133617E-03 -6.919791292125462E-05
-1.352747343365E+01 -3.475837102333626E-03 -6.934805088376449E-05
-1.351746843115E+01 -3.481204950009989E-03 -6.949845098101622E-05
-1.350746342865E+01 -3.486538145383512E-03 -6.964912119061421E-05
-1.349745842615E+01 -3.491838072502386E-03 -6.980006923624784E-05
-1.348745342364E+01 -3.497106057484415E-03 -6.995130260177120E-05
-1.347744842114E+01 -3.502343371557054E-03 -7.010282854440229E-05
-1.346744341864E+01 -3.507551233909156E-03 -7.025465410711303E-05
-1.345743841614E+01 -3.512730814368226E-03 -7.040678613026106E-05
-1.344743341364E+01 -3.517883235915313E-03 -7.055923126251620E-05
-1.343742841114E+01 -3.523009577048732E-03 -7.071199597113804E-05
-1.342742340864E+01 -3.528110874007381E-03 -7.086508655164081E-05
-1.341741840614E+01 -3.533188122862657E-03 -7.101850913689516E-05
-1.340741340363E+01 -3.538242281488782E-03 -7.117226970569833E-05
-1.339740840113E+01 -3.543274271418631E-03 -7.132637409085260E-05
-1.338740339863E+01 -3.548284979593671E-03 -7.148082798678546E-05
-1.337739839613E+01 -3.553275260014243E-03 -7.163563695674072E-05
-1.336739339363E+01 -3.558245935297143E-03 -7.179080643956252E-05
-1.335738839113E+01 -3.563197798146352E-03 -7.194634175611457E-05
-1.334738338863E+01 -3.568131612742484E-03 -7.210224811533715E-05
-1.333737838613E+01 -3.573048116056111E-03 -7.225853061998464E-05
-1.332737338362E+01 -3.577948019089917E-03 -7.241519427204866E-05
-1.331736838112E+01 -3.582832008053814E-03 -7.257224397789786E-05
-1.330736337862E+01 -3.587700745477632E-03 -7.272968455314330E-05
-1.329735837612E+01 -3.592554871264757E-03 -7.288752072725314E-05
-1.328735337362E+01 -3.597395003690664E-03 -7.304575714792578E-05
-1.327734837112E+01 -3.602221740349365E-03 -7.320439838524298E-05
-1.326734336862E+01 -3.607035659051391E-03 -7.336344893561096E-05
-1.325733836612E+01 -3.611837318675464E-03 -7.352291322549930E-05
-1.324733336361E+01 -3.616627259977398E-03 -7.368279561500522E-05
-1.323732836111E+01 -3.621406006357926E-03 -7.384310040122986E-05
-1.322732335861E+01 -3.626174064592672E-03 -7.400383182149934E-05
-1.321731835611E+01 -3.630931925525558E-03 -7.416499405642359E-05
-1.320731335361E+01 -3.635680064728687E-03 -7.432659123281557E-05
-1.319730835111E+01 -3.640418943129548E-03 -7.448862742646499E-05
-1.318730334861E+01 -3.645149007608519E-03 -7.465110666479141E-05
-1.317729834611E+01 -3.649870691567263E-03 -7.481403292936200E-05
-1.316729334360E+01 -3.654584415470339E-03 -7.497741015830562E-05
-1.315728834110E+01 -3.659290587361318E-03 -7.514124224860916E-05
-1.314728333860E+01 -3.663989603354568E-03 -7.530553305831376E-05
-1.313727833610E+01 -3.668681848104364E-03 -7.547028640861364E-05
-1.312727333360E+01 -3.673367695252235E-03 -7.563550608585819E-05
-1.311726833110E+01 -3.678047507854032E-03 -7.580119584347128E-05
-1.310726332860E+01 -3.682721638787325E-03 -7.596735940378551E-05
-1.309725832610E+01 -3.687390431140780E-03 -7.613400045979729E-05
-1.308725332359E+01 -3.692054218585939E-03 -7.630112267685106E-05
-1.307724832109E+01 -3.696713325732437E-03 -7.646872969424596E-05
-1.306724331859E+01 -3.701368068467743E-03 -7.663682512678323E-05
-1.305723831609E+01 -3.706018754281910E-03 -7.680541256624711E-05
-1.304723331359E+01 -3.710665682578139E-03 -7.697449558282396E-05
-1.303722831109E+01 -3.715309144970339E-03 -7.714407772646611E-05
-1.302722330859E+01 -3.719949425567397E-03 -7.731416252820453E-05
-1.301721830609E+01 -3.724586801245809E-03 -7.748475350140421E-05
-1.300721330358E+01 -3.729221541910573E-03 -7.765585414297341E-05
-1.299720830108E+01 -3.733853910745301E-03 -7.782746793452869E-05
-1.298720329858E+01 -3.738484164451659E-03 -7.799959834351254E-05
-1.297719829608E+01 -3.743112553479339E-03 -7.817224882427131E-05
-1.296719329358E+01 -3.747739322246150E-03 -7.834542281909265E-05
-1.295718829108E+01 -3.752364709349401E-03 -7.851912375920426E-05
-1.294718328858E+01 -3.756988947768660E-03 -7.869335506573739E-05
-1.293717828608E+01 -3.761612265060392E-03 -7.886812015065439E-05
-1.292717328357E+01 -3.766234883544699E-03 -7.904342241764944E-05
-1.291716828107E+01 -3.770857020484869E-03 -7.921926526301003E-05
-1.290716327857E+01 -3.775478888259628E-03 -7.939565207645236E-05
-1.289715827607E+01 -3.780100694528836E-03 -7.957258624193186E-05
-1.288715327357E+01 -3.784722642392561E-03 -7.975007113842074E-05
-1.287714827107E+01 -3.789344930544200E-03 -7.992811014066444E-05
-1.286714326857E+01 -3.793967753417627E-03 -8.010670661991210E-05
-1.285713826607E+01 -3.798591301328643E-03 -8.028586394462311E-05
-1.284713326356E+01 -3.803215760611294E-03 -8.046558548115280E-05
-1.283712826106E+01 -3.807841313748837E-03 -8.064587459441483E-05
-1.282712325856E+01 -3.812468139499971E-03 -8.082673464852770E-05
-1.281711825606E+01 -3.817096413020297E-03 -8.100816900743625E-05
-1.280711325356E+01 -3.821726305979267E-03 -8.119018103551817E-05
-1.279710825106E+01 -3.826357986673020E-03 -8.137277409817467E-05
-1.278710324856E+01 -3.830991620132835E-03 -8.155595156239842E-05
-1.277709824606E+01 -3.835627368229956E-03 -8.173971679733224E-05
-1.276709324355E+01 -3.840265389776440E-03 -8.192407317480770E-05
-1.275708824105E+01 -3.844905840622354E-03 -8.210902406987257E-05
-1.274708323855E+01 -3.849548873749889E-03 -8.229457286130080E-05
-1.273707823605E+01 -3.854194639363586E-03 -8.248072293209271E-05
-1.272707323355E+01 -3.858843284977979E-03 -8.266747766995851E-05
-1.271706823105E+01 -3.863494955501732E-03 -8.285484046779608E-05
-1.270706322855E+01 -3.868149793319147E-03 -8.304281472414912E-05
-1.269705822605E+01 -3.872807938368661E-03 -8.323140384365919E-05
-1.268705322354E+01 -3.877469528218905E-03 -8.342061123751011E-05
-1.267704822104E+01 -3.882134698141893E-03 -8.361044032385051E-05
-1.266704321854E+01 -3.886803581183994E-03 -8.380089452822361E-05
-1.265703821604E+01 -3.891476308234305E-03 -8.399197728397148E-05
-1.264703321354E+01 -3.896153008090932E-03 -8.418369203264219E-05
-1.263702821104E+01 -3.900833807525014E-03 -8.437604222438235E-05
-1.262702320854E+01 -3.905518831342458E-03 -8.456903131832434E-05
-1.261701820604E+01 -3.910208202444036E-03 -8.476266278296376E-05
-1.260701320353E+01 -3.914902041883083E-03 -8.495694009653230E-05
-1.259700820103E+01 -3.919600468921662E-03 -8.515186674736184E-05
-1.258700319853E+01 -3.924303601084868E-03 -8.534744623424065E-05
-1.257699819603E+01 -3.929011554213175E-03 -8.554368206676679E-05
-1.256699319353E+01 -3.933724442513505E-03 -8.574057776569288E-05
-1.255698819103E+01 -3.938442378608161E-03 -8.593813686326348E-05
-1.254698318853E+01 -3.943165473582793E-03 -8.613636290355248E-05
-1.253697818603E+01 -3.947893837032576E-03 -8.633525944279233E-05
-1.252697318352E+01 -3.952627577106887E-03 -8.653483004969129E-05
-1.251696818102E+01 -3.957366800552777E-03 -8.673507830576009E-05
-1.250696317852E+01 -3.962111612757065E-03 -8.693600780562218E-05
-1.249695817602E+01 -3.966862117787088E-03 -8.713762215732547E-05
-1.248695317352E+01 -3.971618418430241E-03 -8.733992498264714E-05
-1.247694817102E+01 -3.976380616232542E-03 -8.754291991739668E-05
-1.246694316852E+01 -3.981148811535643E-03 -8.774661061171292E-05
-1.245693816602E+01 -3.985923103513072E-03 -8.795100073036111E-05
-1.244693316351E+01 -3.990703590205326E-03 -8.815609395302291E-05
-1.243692816101E+01 -3.995490368553818E-03 -8.836189397458403E-05
-1.242692315851E+01 -4.000283534434090E-03 -8.856840450542142E-05
-1.241691815601E+01 -4.005083182687696E-03 -8.877562927168472E-05
-1.240691315351E+01 -4.009889407153600E-03 -8.898357201557579E-05
-1.239690815101E+01 -4.014702300698308E-03 -8.919223649562699E-05
-1.238690314851E+01 -4.019521955245443E-03 -8.940162648697447E-05
-1.237689814601E+01 -4.024348461804187E-03 -8.961174578163306E-05
-1.236689314350E+01 -4.029181910497140E-03 -8.982259818876375E-05
-1.235688814100E+01 -4.034022390587522E-03 -9.003418753494452E-05
-1.234688313850E+01 -4.038869990505148E-03 -9.024651766443736E-05
-1.233687813600E+01 -4.043724797872324E-03 -9.045959243945093E-05
-1.232687313350E+01 -4.048586899528473E-03 -9.067341574040609E-05
-1.231686813100E+01 -4.053456381554345E-03 -9.088799146619636E-05
-1.230686312850E+01 -4.058333329295795E-03 -9.110332353444810E-05
-1.229685812600E+01 -4.063217827386526E-03 -9.131941588178070E-05
-1.228685312349E+01 -4.068109959770356E-03 -9.153627246406482E-05
-1.227684812099E+01 -4.073009809722927E-03 -9.175389725667713E-05
-1.226684311849E+01 -4.077917459873230E-03 -9.197229425475864E-05
-1.225683811599E+01 -4.082832992223740E-03 -9.219146747346761E-05
-1.224683311349E+01 -4.087756488170810E-03 -9.241142094823485E-05
-1.223682811099E+01 -4.092688028524004E-03 -9.263215873501719E-05
-1.222682310849E+01 -4.097627693525424E-03 -9.285368491055030E-05
-1.221681810599E+01 -4.102575562868080E-03 -9.307600357259932E-05
-1.220681310348E+01 -4.107531715714175E-03 -9.329911884021439E-05
-1.219680810098E+01 -4.112496230712710E-03 -9.352303485397818E-05
-1.218680309848E+01 -4.117469186016741E-03 -9.374775577625901E-05
-1.217679809598E+01 -4.122450659300151E-03 -9.397328579146061E-05
-1.216679309348E+01 -4.127440727774163E-03 -9.419962910627659E-05
-1.215678809098E+01 -4.132439468203240E-03 -9.442678994993529E-05
-1.214678308848E+01 -4.137446956920943E-03 -9.465477257445277E-05
-1.213677808598E+01 -4.142463269844805E-03 -9.488358125488803E-05
-1.212677308347E+01 -4.147488482491678E-03 -9.511322028958637E-05
-1.211676808097E+01 -4.152522669992017E-03 -9.534369400043623E-05
-1.210676307847E+01 -4.157565907104106E-03 -9.557500673311636E-05
-1.209675807597E+01 -4.162618268228243E-03 -9.580716285735169E-05
-1.208675307347E+01 -4.167679827419861E-03 -9.604016676715984E-05
-1.207674807097E+01 -4.172750658403254E-03 -9.627402288110991E-05
-1.206674306847E+01 -4.177830834584260E-03 -9.650873564257060E-05
-1.205673806597E+01 -4.182920429063069E-03 -9.674430951996441E-05
-1.204673306346E+01 -4.188019514646709E-03 -9.698074900702295E-05
-1.203672806096E+01 -4.193128163860995E-03 -9.721805862304204E-05
-1.202672305846E+01 -4.198246448962742E-03 -9.745624291313577E-05
-1.201671805596E+01 -4.203374441950905E-03 -9.769530644849186E-05
-1.200671305346E+01 -4.208512214578520E-03 -9.793525382663147E-05
-1.199670805096E+01 -4.213659838363457E-03 -9.817608967166483E-05
-1.198670304846E+01 -4.218817384599488E-03 -9.841781863455113E-05
-1.197669804596E+01 -4.223984924366984E-03 -9.866044539335620E-05
-1.196669304345E+01 -4.229162528543407E-03 -9.890397465351793E-05
-1.195668804095E+01 -4.234350267813528E-03 -9.914841114810269E-05
-1.194668303845E+01 -4.239548212679507E-03 -9.939375963807217E-05
-1.193667803595E+01 -4.244756433470688E-03 -9.964002491254455E-05
-1.192667303345E+01 -4.249975000353498E-03 -9.988721178906328E-05
-1.191666803095E+01 -4.255203983340792E-03 -1.001353251138590E-04
-1.190666302845E+01 -4.260443452300990E-03 -1.003843697621230E-04
-1.189665802595E+01 -4.265693476967560E-03 -1.006343506382721E-04
-1.188665302344E+01 -4.270954126947722E-03 -1.008852726762204E-04
-1.187664802094E+01 -4.276225471731361E-03 -1.011371408396528E-04
-1.186664301844E+01 -4.281507580699625E-03 -1.013899601222963E-04
-1.185663801594E+01 -4.286800523133500E-03 -1.016437355481962E-04
-1.184663301344E+01 -4.292104368221966E-03 -1.018984721719933E-04
-1.183662801094E+01 -4.297419185070366E-03 -1.021541750792006E-04
-1.182662300844E+01 -4.302745042708312E-03 -1.024108493864836E-04
-1.181661800594E+01 -4.308082010097801E-03 -1.026685002419433E-04
-1.180661300343E+01 -4.313430156140795E-03 -1.029271328253973E-04
-1.179660800093E+01 -4.318789549686901E-03 -1.031867523486654E-04
-1.178660299843E+01 -4.324160259540995E-03 -1.034473640558587E-04
-1.177659799593E+01 -4.329542354470618E-03 -1.037089732236626E-04
-1.176659299343E+01 -4.334935903213117E-03 -1.039715851616355E-04
-1.175658799093E+01 -4.340340974482968E-03 -1.042352052124943E-04
-1.174658298843E+01 -4.345757636978866E-03 -1.044998387524118E-04
-1.173657798593E+01 -4.351185959390462E-03 -1.047654911913140E-04
-1.172657298342E+01 -4.356626010405468E-03 -1.050321679731750E-04
-1.171656798092E+01 -4.362077858716353E-03 -1.052998745763231E-04
-1.170656297842E+01 -4.367541573026846E-03 -1.055686165137386E-04
-1.169655797592E+01 -4.373017222058667E-03 -1.058383993333621E-04
-1.168655297342E+01 -4.378504874557883E-03 -1.061092286183990E-04
-1.167654797092E+01 -4.384004599301441E-03 -1.063811099876309E-04
-1.166654296842E+01 -4.389516465103219E-03 -1.066540490957267E-04
-1.165653796592E+01 -4.395040540820522E-03 -1.069280516335563E-04
-1.164653296341E+01 -4.400576895359933E-03 -1.072031233285067E-04
-1.163652796091E+01 -4.406125597683681E-03 -1.074792699448023E-04
-1.162652295841E+01 -4.411686716815280E-03 -1.077564972838248E-04
-1.161651795591E+01 -4.417260321845640E-03 -1.080348111844376E-04
-1.160651295341E+01 -4.422846481938874E-03 -1.083142175233106E-04
-1.159650795091E+01 -4.428445266338102E-03 -1.085947222152531E-04
-1.158650294841E+01 -4.434056744370927E-03 -1.088763312135388E-04
-1.157649794591E+01 -4.439680985455384E-03 -1.091590505102476E-04
-1.156649294340E+01 -4.445318059105334E-03 -1.094428861365955E-04
-1.155648794090E+01 -4.450968034935937E-03 -1.097278441632786E-04
-1.154648293840E+01 -4.456630982669222E-03 -1.100139307008143E-04
-1.153647793590E+01 -4.462306972139467E-03 -1.103011518998850E-04
-1.152647293340E+01 -4.467996073298401E-03 -1.105895139516893E-04
-1.151646793090E+01 -4.473698356220776E-03 -1.108790230882898E-04
-1.150646292840E+01 -4.479413891109242E-03 -1.111696855829677E-04
-1.149645792589E+01 -4.485142748299858E-03 -1.114615077505820E-04
-1.148645292339E+01 -4.490884998267121E-03 -1.117544959479271E-04
-1.147644792089E+01 -4.496640711628982E-03 -1.120486565740946E-04
